Supplemental Material to Orton et al. 2014. Mid-Infrared Spectrsocopy of Uranus from
the Spitzer Infrare Spectrometer: 2. Determination of the Mean Composition of the Upper
Troposphere and Stratosphere.

Appendix A

Temperature and minor/trace constituent abundances for the atmosphere of Uranus,
corresonding to the nominal temperature profile and vertically uniform eddy diffusion
coefficient.  The mole fraction of methane (CH4) at the tropopause and the value of the
eddy diffusion coefficient (Kzz) have been chosen to so that methane and ethane
emission features in the spectrum are optimally matched.  The abundance profiles of the
other constituents have been scaled to match their corresponding features in the
Spitzer IRS spectrum, as noted in the text.  The mole-fraction profile for CH3 given in
this table corresponds to a best fit, but it is marginally detected, at best; a
3-standard deviation upper limit corresponds to 1.4 times this value.  Molar fractions
were not derivable above the 100-nanobar level; above this only temperatures are
given. The He/H2 ratio is assumed to be 15/85 by number (Conrath et al. 1987).

   p(bar)  T(K)   mole fraction
                  CH4      C2H2     C2H6     CH3C2H   C4H2     CH3      CO2
 1.00e+01 178.40 3.20e-02 1.13e-11 4.86e-11 2.18e-16 1.86e-15 9.62e-33 9.94e-15
 8.91e+00 172.00 3.20e-02 1.22e-11 5.24e-11 2.36e-16 2.07e-15 1.82e-30 1.07e-14
 7.94e+00 165.60 3.20e-02 1.32e-11 5.66e-11 2.56e-16 2.30e-15 3.44e-28 1.16e-14
 7.08e+00 159.60 3.20e-02 1.43e-11 6.11e-11 2.77e-16 2.56e-15 6.48e-26 1.25e-14
 6.31e+00 153.60 3.20e-02 1.54e-11 6.60e-11 3.00e-16 2.84e-15 1.22e-23 1.35e-14
 5.62e+00 147.95 3.20e-02 1.66e-11 7.13e-11 3.25e-16 3.16e-15 2.31e-21 1.46e-14
 5.01e+00 142.30 3.20e-02 1.80e-11 7.70e-11 3.53e-16 3.51e-15 4.36e-19 1.58e-14
 4.47e+00 136.95 3.20e-02 1.95e-11 8.28e-11 3.97e-16 4.89e-15 3.22e-18 1.70e-14
 3.98e+00 131.60 3.20e-02 2.12e-11 8.89e-11 4.46e-16 6.80e-15 2.38e-17 1.83e-14
 3.55e+00 126.60 3.20e-02 2.33e-11 9.47e-11 5.60e-16 1.27e-14 2.75e-17 1.96e-14
 3.16e+00 121.60 3.20e-02 2.57e-11 1.01e-10 7.02e-16 2.36e-14 3.18e-17 2.10e-14
 2.82e+00 116.85 3.20e-02 2.94e-11 1.06e-10 9.63e-16 5.21e-14 2.42e-17 2.24e-14
 2.51e+00 112.10 3.20e-02 3.37e-11 1.11e-10 1.32e-15 1.15e-13 1.85e-17 2.39e-14
 2.24e+00 107.70 3.20e-02 3.94e-11 1.15e-10 1.44e-15 1.93e-13 1.68e-17 2.54e-14
 2.00e+00 103.30 3.20e-02 4.61e-11 1.19e-10 1.56e-15 3.24e-13 1.53e-17 2.70e-14
 1.78e+00  98.85 2.95e-02 5.28e-11 1.23e-10 1.21e-15 1.38e-13 1.82e-17 2.87e-14
 1.58e+00  94.40 2.72e-02 6.04e-11 1.27e-10 9.31e-16 5.91e-14 2.16e-17 3.04e-14
 1.41e+00  90.35 2.12e-02 6.76e-11 1.30e-10 6.53e-16 9.35e-15 2.85e-17 3.20e-14
 1.26e+00  86.30 1.65e-02 7.57e-11 1.33e-10 4.58e-16 1.48e-15 3.75e-17 3.38e-14
 1.12e+00  82.85 1.15e-02 8.30e-11 1.37e-10 3.29e-16 2.06e-16 4.55e-17 3.34e-14
 1.00e+00  79.40 7.94e-03 9.11e-11 1.40e-10 2.36e-16 2.87e-17 5.52e-17 3.31e-14
 8.91e-01  76.15 4.47e-03 8.83e-11 1.44e-10 1.78e-16 1.17e-17 5.99e-17 1.86e-14
 7.94e-01  72.90 2.52e-03 8.56e-11 1.47e-10 1.34e-16 4.74e-18 6.49e-17 1.04e-14
 7.08e-01  70.45 1.51e-03 4.11e-11 1.46e-10 1.10e-16 1.54e-18 4.79e-17 2.72e-15
 6.31e-01  68.00 8.99e-04 1.97e-11 1.45e-10 9.06e-17 5.01e-19 3.54e-17 7.12e-16
 5.62e-01  65.90 5.54e-04 4.55e-12 1.07e-10 8.41e-17 3.45e-20 1.76e-17 1.60e-16
 5.01e-01  63.80 3.42e-04 1.05e-12 7.84e-11 7.81e-17 2.37e-21 8.77e-18 3.60e-17
 4.47e-01  62.20 2.24e-04 2.61e-13 3.69e-11 8.20e-17 3.57e-22 4.48e-18 9.51e-18
 3.98e-01  60.60 1.47e-04 6.49e-14 1.74e-11 8.61e-17 5.37e-23 2.29e-18 2.51e-18
 3.55e-01  59.35 1.04e-04 2.10e-14 7.60e-12 9.95e-17 6.03e-23 1.41e-18 8.66e-19
 3.16e-01  58.10 7.36e-05 6.83e-15 3.33e-12 1.15e-16 6.76e-23 8.70e-19 2.99e-19
 2.82e-01  57.10 5.57e-05 2.69e-15 1.61e-12 1.08e-16 2.93e-22 8.40e-19 1.24e-19
 2.51e-01  56.10 4.21e-05 1.06e-15 7.83e-13 1.02e-16 1.27e-21 8.12e-19 5.17e-20
 2.24e-01  55.35 3.38e-05 4.90e-16 4.29e-13 6.74e-17 3.74e-22 4.81e-19 2.50e-20
 2.00e-01  54.60 2.71e-05 2.27e-16 2.36e-13 4.45e-17 1.10e-22 2.85e-19 1.21e-20
 1.78e-01  54.05 2.33e-05 1.30e-16 1.52e-13 3.14e-17 4.47e-23 1.48e-19 7.11e-21
 1.59e-01  53.50 2.00e-05 7.46e-17 9.75e-14 2.21e-17 1.82e-23 7.65e-20 4.18e-21
 1.41e-01  53.10 1.79e-05 4.89e-17 7.08e-14 1.81e-17 1.06e-23 9.26e-20 2.86e-21
 1.26e-01  52.70 1.60e-05 3.20e-17 5.13e-14 1.49e-17 6.17e-24 1.12e-19 1.95e-21
 1.12e-01  52.55 1.60e-05 2.87e-17 4.66e-14 2.39e-17 1.04e-23 1.38e-19 1.74e-21
 1.00e-01  52.40 1.60e-05 2.57e-17 4.23e-14 3.84e-17 1.74e-23 1.71e-19 1.56e-21
 8.91e-02  52.75 1.60e-05 2.54e-17 4.10e-14 7.31e-17 4.53e-23 2.91e-19 1.53e-21
 7.94e-02  53.10 1.60e-05 2.51e-17 3.98e-14 1.39e-16 1.18e-22 4.95e-19 1.50e-21
 7.08e-02  52.70 1.60e-05 2.66e-17 4.14e-14 2.84e-16 4.01e-22 1.22e-18 1.58e-21
 6.31e-02  52.30 1.60e-05 2.82e-17 4.31e-14 5.81e-16 1.36e-21 3.02e-18 1.66e-21
 5.62e-02  52.35 1.60e-05 3.36e-17 4.89e-14 1.20e-15 4.53e-21 8.91e-18 1.94e-21
 5.01e-02  52.40 1.60e-05 4.01e-17 5.54e-14 2.46e-15 1.51e-20 2.63e-17 2.26e-21
 4.47e-02  52.55 1.60e-05 5.19e-17 6.69e-14 4.82e-15 4.11e-20 6.61e-17 2.84e-21
 3.98e-02  52.70 1.60e-05 6.71e-17 8.06e-14 9.46e-15 1.12e-19 1.66e-16 3.56e-21
 3.55e-02  52.85 1.60e-05 8.97e-17 1.02e-13 1.71e-14 2.34e-19 3.23e-16 4.73e-21
 3.16e-02  53.00 1.59e-05 1.20e-16 1.30e-13 3.08e-14 4.90e-19 6.27e-16 6.29e-21
 2.82e-02  53.25 1.59e-05 1.80e-16 1.73e-13 5.08e-14 9.15e-19 1.12e-15 8.97e-21
 2.51e-02  53.50 1.59e-05 2.69e-16 2.32e-13 8.38e-14 1.71e-18 2.01e-15 1.28e-20
 2.24e-02  53.90 1.59e-05 4.50e-16 3.55e-13 1.21e-13 2.26e-18 2.92e-15 2.13e-20
 1.99e-02  54.30 1.59e-05 7.51e-16 5.43e-13 1.75e-13 2.99e-18 4.25e-15 3.55e-20
 1.78e-02  55.05 1.59e-05 1.90e-15 1.08e-12 1.93e-13 3.96e-18 6.17e-15 8.26e-20
 1.58e-02  55.80 1.59e-05 4.81e-15 2.17e-12 2.13e-13 5.25e-18 8.97e-15 1.92e-19
 1.41e-02  56.75 1.59e-05 1.41e-14 4.94e-12 2.32e-13 5.55e-18 1.19e-14 5.22e-19
 1.26e-02  57.70 1.59e-05 4.16e-14 1.13e-11 2.53e-13 5.86e-18 1.57e-14 1.42e-18
 1.12e-02  58.75 1.58e-05 1.28e-13 2.64e-11 3.14e-13 6.28e-18 1.95e-14 4.04e-18
 1.00e-02  59.80 1.58e-05 3.91e-13 6.21e-11 3.89e-13 6.73e-18 2.42e-14 1.15e-17
 8.91e-03  60.95 1.58e-05 1.27e-12 1.45e-10 5.16e-13 7.15e-18 2.84e-14 3.49e-17
 7.94e-03  62.10 1.58e-05 4.13e-12 3.37e-10 6.85e-13 7.60e-18 3.33e-14 1.06e-16
 7.08e-03  63.45 1.57e-05 1.42e-11 6.74e-10 9.22e-13 5.35e-18 2.28e-14 3.41e-16
 6.31e-03  64.80 1.57e-05 4.88e-11 1.35e-09 1.24e-12 3.76e-18 1.56e-14 1.10e-15
 5.62e-03  66.45 1.57e-05 1.64e-10 2.02e-09 1.64e-12 1.32e-17 8.72e-15 3.57e-15
 5.01e-03  68.10 1.56e-05 5.51e-10 3.03e-09 2.17e-12 4.66e-17 4.87e-15 1.16e-14
 4.47e-03  69.95 1.55e-05 1.62e-09 3.77e-09 2.85e-12 3.02e-16 4.97e-15 4.13e-14
 3.98e-03  71.80 1.55e-05 4.76e-09 4.67e-09 3.74e-12 1.96e-15 5.08e-15 1.47e-13
 3.55e-03  73.70 1.54e-05 7.78e-09 5.49e-09 4.87e-12 4.07e-15 6.27e-15 4.06e-13
 3.16e-03  75.60 1.53e-05 1.27e-08 6.45e-09 6.33e-12 8.46e-15 7.73e-15 1.12e-12
 2.82e-03  77.45 1.52e-05 1.58e-08 7.53e-09 8.19e-12 1.14e-14 9.26e-15 1.99e-12
 2.51e-03  79.30 1.51e-05 1.96e-08 8.78e-09 1.06e-11 1.54e-14 1.11e-14 3.54e-12
 2.24e-03  81.10 1.49e-05 2.31e-08 1.03e-08 1.37e-11 2.94e-14 1.31e-14 4.58e-12
 1.99e-03  82.90 1.48e-05 2.71e-08 1.20e-08 1.78e-11 5.62e-14 1.55e-14 5.93e-12
 1.78e-03  84.60 1.46e-05 3.16e-08 1.39e-08 2.30e-11 1.21e-13 1.85e-14 7.04e-12
 1.59e-03  86.30 1.44e-05 3.68e-08 1.62e-08 2.97e-11 2.62e-13 2.20e-14 8.36e-12
 1.41e-03  87.90 1.42e-05 4.27e-08 1.88e-08 3.83e-11 6.73e-13 2.68e-14 9.81e-12
 1.26e-03  89.50 1.39e-05 4.95e-08 2.18e-08 4.95e-11 1.73e-12 3.27e-14 1.15e-11
 1.12e-03  91.00 1.36e-05 5.71e-08 2.51e-08 6.38e-11 3.89e-12 4.17e-14 1.33e-11
 1.00e-03  92.50 1.32e-05 6.58e-08 2.90e-08 8.23e-11 8.76e-12 5.32e-14 1.54e-11
 8.91e-04  93.95 1.28e-05 7.54e-08 3.31e-08 1.05e-10 1.53e-11 7.11e-14 1.78e-11
 7.94e-04  95.40 1.24e-05 8.63e-08 3.79e-08 1.35e-10 2.66e-11 9.50e-14 2.05e-11
 7.08e-04  96.80 1.18e-05 9.79e-08 4.30e-08 1.69e-10 4.05e-11 1.30e-13 2.34e-11
 6.31e-04  98.20 1.13e-05 1.11e-07 4.88e-08 2.12e-10 6.16e-11 1.77e-13 2.67e-11
 5.62e-04  99.55 1.07e-05 1.25e-07 5.50e-08 2.54e-10 8.38e-11 2.41e-13 3.02e-11
 5.01e-04 100.90 1.01e-05 1.40e-07 6.20e-08 3.04e-10 1.14e-10 3.27e-13 3.41e-11
 4.47e-04 102.30 9.35e-06 1.54e-07 6.93e-08 3.39e-10 1.22e-10 4.41e-13 3.80e-11
 3.98e-04 103.70 8.66e-06 1.70e-07 7.75e-08 3.79e-10 1.30e-10 5.94e-13 4.24e-11
 3.55e-04 105.15 7.82e-06 1.84e-07 8.60e-08 3.95e-10 1.20e-10 9.66e-13 4.66e-11
 3.16e-04 106.60 7.06e-06 2.00e-07 9.54e-08 4.12e-10 1.11e-10 1.57e-12 5.12e-11
 2.82e-04 108.10 6.16e-06 2.13e-07 1.05e-07 4.04e-10 9.80e-11 3.66e-12 5.53e-11
 2.51e-04 109.60 5.37e-06 2.27e-07 1.16e-07 3.97e-10 8.65e-11 8.51e-12 5.98e-11
 2.24e-04 111.10 4.44e-06 2.35e-07 1.23e-07 3.61e-10 6.96e-11 1.48e-11 6.36e-11
 1.99e-04 112.60 3.68e-06 2.44e-07 1.30e-07 3.28e-10 5.60e-11 2.56e-11 6.76e-11
 1.78e-04 114.20 2.88e-06 2.39e-07 1.21e-07 2.70e-10 4.36e-11 3.33e-11 7.10e-11
 1.59e-04 115.80 2.25e-06 2.35e-07 1.13e-07 2.23e-10 3.39e-11 4.34e-11 7.45e-11
 1.41e-04 117.40 1.66e-06 2.10e-07 8.96e-08 1.60e-10 2.39e-11 4.71e-11 7.72e-11
 1.26e-04 119.00 1.23e-06 1.88e-07 7.09e-08 1.15e-10 1.68e-11 5.11e-11 8.00e-11
 1.12e-04 120.60 8.65e-07 1.47e-07 4.93e-08 6.94e-11 9.58e-12 4.93e-11 8.20e-11
 1.00e-04 122.20 6.08e-07 1.15e-07 3.43e-08 4.19e-11 5.46e-12 4.76e-11 8.41e-11
 8.91e-05 123.85 4.07e-07 7.97e-08 2.24e-08 2.18e-11 2.55e-12 4.35e-11 8.58e-11
 7.94e-05 125.50 2.73e-07 5.52e-08 1.46e-08 1.13e-11 1.19e-12 3.98e-11 8.76e-11
 7.08e-05 127.15 1.75e-07 3.40e-08 8.92e-09 5.18e-12 4.52e-13 3.48e-11 8.89e-11
 6.31e-05 128.80 1.12e-07 2.09e-08 5.44e-09 2.37e-12 1.72e-13 3.04e-11 9.03e-11
 5.62e-05 130.45 6.86e-08 1.12e-08 2.75e-09 9.54e-13 4.69e-14 2.37e-11 9.01e-11
 5.01e-05 132.10 4.20e-08 5.99e-09 1.39e-09 3.84e-13 1.28e-14 1.85e-11 8.99e-11
 4.47e-05 133.70 2.41e-08 2.82e-09 5.21e-10 1.40e-13 2.40e-15 1.17e-11 8.89e-11
 3.98e-05 135.30 1.38e-08 1.33e-09 1.96e-10 5.11e-14 4.51e-16 7.38e-12 8.79e-11
 3.55e-05 136.95 6.76e-09 5.58e-10 5.29e-11 1.74e-14 6.32e-17 3.27e-12 8.69e-11
 3.16e-05 138.60 3.31e-09 2.34e-10 1.43e-11 5.90e-15 8.86e-18 1.45e-12 8.60e-11
 2.82e-05 140.25 1.35e-09 8.87e-11 3.21e-12 1.88e-15 1.02e-18 4.33e-13 8.45e-11
 2.51e-05 141.90 5.50e-10 3.36e-11 7.17e-13 6.00e-16 1.17e-19 1.29e-13 8.30e-11
 2.24e-05 143.55 2.30e-10 1.18e-11 1.55e-13 1.90e-16 1.19e-20 5.40e-14 8.13e-11
 2.00e-05 145.20 9.59e-11 4.17e-12 3.37e-14 6.01e-17 1.20e-21 2.26e-14 7.97e-11
 1.78e-05 146.85 4.89e-11 1.39e-12 7.23e-15 1.93e-17 1.10e-22 1.39e-14 7.86e-11
 1.58e-05 148.50 2.49e-11 4.60e-13 1.55e-15 6.20e-18 1.01e-23 8.54e-15 7.75e-11
 1.41e-05 150.15 1.98e-11 1.44e-13 3.78e-16 1.96e-18 8.33e-25 8.16e-15 7.70e-11
 1.26e-05 151.80 1.58e-11 4.53e-14 9.23e-17 6.23e-19 6.87e-26 7.80e-15 7.65e-11
 1.12e-05 153.45 1.57e-11 1.37e-14 4.58e-17 1.93e-19 6.07e-27 8.62e-15 7.57e-11
 1.00e-05 155.10 1.56e-11 4.13e-15 2.27e-17 5.95e-20 5.36e-28 9.53e-15 7.50e-11
 8.91e-06 156.75 1.59e-11 1.22e-15 1.92e-17 1.91e-20 1.08e-28 1.07e-14 7.47e-11
 7.94e-06 158.40 1.62e-11 3.60e-16 1.62e-17 6.14e-21 2.19e-29 1.20e-14 7.44e-11
 7.08e-06 160.05 1.61e-11 1.18e-16 1.42e-17 3.02e-21 1.82e-29 1.31e-14 7.38e-11
 6.31e-06 161.70 1.60e-11 3.85e-17 1.25e-17 1.49e-21 1.52e-29 1.43e-14 7.33e-11
 5.62e-06 163.35 1.54e-11 2.05e-17 1.08e-17 1.41e-21 1.84e-29 1.55e-14 7.31e-11
 5.01e-06 165.00 1.49e-11 1.09e-17 9.35e-18 1.33e-21 2.22e-29 1.68e-14 7.29e-11
 4.47e-06 166.65 1.41e-11 9.20e-18 8.02e-18 1.52e-21 2.84e-29 1.80e-14 7.27e-11
 3.98e-06 168.30 1.34e-11 7.76e-18 6.87e-18 1.73e-21 3.63e-29 1.94e-14 7.25e-11
 3.55e-06 169.95 1.24e-11 7.43e-18 5.83e-18 1.96e-21 4.69e-29 2.09e-14 7.19e-11
 3.16e-06 171.60 1.15e-11 7.12e-18 4.95e-18 2.23e-21 6.05e-29 2.25e-14 7.12e-11
 2.82e-06 173.25 1.07e-11 7.00e-18 4.24e-18 2.49e-21 7.93e-29 2.46e-14 7.12e-11
 2.51e-06 174.90 9.86e-12 6.88e-18 3.63e-18 2.78e-21 1.04e-28 2.68e-14 7.12e-11
 2.24e-06 176.55 9.04e-12 6.79e-18 3.08e-18 3.00e-21 1.38e-28 2.96e-14 7.09e-11
 1.99e-06 178.20 8.29e-12 6.70e-18 2.62e-18 3.23e-21 1.82e-28 3.27e-14 7.06e-11
 1.78e-06 179.85 7.55e-12 6.63e-18 2.19e-18 3.37e-21 2.63e-28 3.79e-14 7.03e-11
 1.59e-06 181.50 6.88e-12 6.57e-18 1.83e-18 3.51e-21 3.80e-28 4.40e-14 7.01e-11
 1.41e-06 197.30 6.25e-12 6.50e-18 1.43e-18 3.56e-21 6.97e-28 6.08e-14 7.03e-11
 1.26e-06 213.10 5.67e-12 6.43e-18 1.12e-18 3.62e-21 1.28e-27 8.41e-14 7.06e-11
 1.12e-06 228.90 5.11e-12 6.25e-18 7.23e-19 3.77e-21 3.04e-27 1.03e-13 7.10e-11
 1.00e-06 244.70 4.60e-12 6.08e-18 4.67e-19 3.92e-21 7.24e-27 1.27e-13 7.14e-11
 8.91e-07 260.50 3.99e-12 5.75e-18 2.08e-19 4.29e-21 1.68e-26 1.19e-13 7.18e-11
 7.94e-07 276.30 3.47e-12 5.44e-18 9.28e-20 4.69e-21 3.91e-26 1.11e-13 7.22e-11
 7.08e-07 292.10 2.64e-12 4.88e-18 2.51e-20 3.68e-21 6.41e-26 6.63e-14 7.22e-11
 6.31e-07 307.90 2.01e-12 4.38e-18 6.78e-21 2.89e-21 1.05e-25 3.96e-14 7.23e-11
 5.62e-07 323.70 1.30e-12 3.41e-18 1.35e-21 1.40e-21 9.71e-26 1.76e-14 7.21e-11
 5.01e-07 339.50 8.44e-13 2.65e-18 2.70e-22 6.78e-22 8.98e-26 7.79e-15 7.19e-11
 4.47e-07 355.30 4.84e-13 1.66e-18 4.53e-23 2.10e-22 4.59e-26 3.15e-15 7.11e-11
 3.98e-07 371.10 2.77e-13 1.04e-18 7.59e-24 6.49e-23 2.35e-26 1.27e-15 7.03e-11
 3.55e-07 386.90 1.47e-13 5.49e-19 1.10e-24 1.42e-23 7.73e-27 5.29e-16 6.94e-11
 3.16e-07 402.70 7.84e-14 2.90e-19 1.61e-25 3.12e-24 2.54e-27 2.20e-16 6.85e-11
 2.82e-07 418.50 4.03e-14 1.35e-19 2.15e-26 5.67e-25 6.11e-28 1.00e-16 6.70e-11
 2.51e-07 434.30 2.07e-14 6.26e-20 2.87e-27 1.03e-25 1.47e-28 4.57e-17 6.56e-11
 2.24e-07 437.75 1.05e-14 2.55e-20 4.18e-28 2.10e-26 2.72e-29 2.55e-17 6.34e-11
 2.00e-07 441.20 5.33e-15 1.04e-20 6.09e-29 4.26e-27 5.02e-30 1.42e-17 6.12e-11
 1.78e-07 444.60 2.68e-15 3.96e-21 1.08e-29 7.99e-28 7.95e-31 8.01e-18 5.87e-11
 1.58e-07 448.00 1.35e-15 1.51e-21 1.93e-30 1.50e-28 1.26e-31 4.52e-18 5.63e-11
 1.41e-07 451.45 6.73e-16 5.51e-22 3.92e-31 2.57e-29 1.80e-32 2.53e-18 5.34e-11
 1.26e-07 454.90 3.36e-16 2.01e-22 7.97e-32 4.42e-30 2.56e-33 1.41e-18 5.07e-11
 1.12e-07 458.35 1.66e-16 7.19e-23 1.75e-32 7.19e-31 3.44e-34 7.84e-19 4.80e-11
 1.00e-07 461.80 8.25e-17 2.57e-23 3.86e-33 1.17e-31 4.62e-35 4.36e-19 4.54e-11
 
 
    P(bar)    T (K)  
 8.91e-08 465.30 
 7.94e-08 468.80 
 7.08e-08 472.30 
 6.31e-08 475.80 
 5.62e-08 479.30 
 5.01e-08 482.80 
 4.47e-08 486.30 
 3.98e-08 489.80 
 3.55e-08 493.30 
 3.16e-08 496.80 
 2.82e-08 500.30 
 2.51e-08 503.80 
 2.24e-08 507.30 
 1.99e-08 510.80 
 1.78e-08 514.30 
 1.58e-08 517.80 
 1.41e-08 521.30 
 1.26e-08 524.80 
 1.12e-08 528.30 
 1.00e-08 531.80 
 8.91e-09 535.30 
 7.94e-09 538.80 
 7.08e-09 542.30 
 6.31e-09 545.80 
 5.62e-09 549.30 
 5.01e-09 552.80 
 4.47e-09 564.21 
 3.98e-09 575.63 
 3.55e-09 587.04 
 3.16e-09 598.46 
 2.82e-09 609.87 
 2.51e-09 621.29 
 2.24e-09 632.70 
 1.99e-09 644.11 
 1.78e-09 655.53 
 1.59e-09 666.94 
 1.41e-09 678.36 
 1.26e-09 689.77 
 1.12e-09 701.19 
 1.00e-09 712.60 
