Supplementary text for Orton et al. 2014. Mid-Infrared Spectroscopy of Uranus from the
Spitzer Infared Spectrometer: 1. Determination of the Mean Temperature Structure of the
Upper Troposphere and Stratosphere.

wl=wavelength (micrometers)
wn=wavenumber (cm-1)
rad=radiance (W cm-1 sr-1 (cm-1)-1); sigma = 1 standard deviation)
Tb=brightness temperature (K); sigma = 1 standard deviation)


Short-Low1 spectrum

    wl      wn         rad        sigma(rad)     Tb      sigma(Tb)    
   7.46    1341.35    9.698e-06    1.011e-06     88.49     0.42
   7.52    1330.56    1.303e-05    9.547e-07     89.08     0.30
   7.58    1319.94    1.467e-05    6.627e-07     88.96     0.19
   7.64    1309.48    2.315e-05    1.156e-06     90.29     0.22
   7.70    1299.19    2.219e-05    1.086e-06     89.50     0.21
   7.76    1289.06    1.489e-05    6.237e-07     87.23     0.17
   7.82    1279.09    1.264e-05    4.483e-07     85.99     0.14
   7.88    1269.27    1.122e-05    5.493e-07     84.95     0.19
   7.94    1259.60    9.035e-06    3.758e-07     83.55     0.16
   8.00    1250.08    8.888e-06    2.749e-07     82.94     0.12
   8.06    1240.70    6.546e-06    1.901e-07     81.26     0.11
   8.12    1231.46    3.009e-06    1.512e-07     77.97     0.17
   8.18    1222.35    2.543e-06    2.255e-07     76.90     0.30
   8.24    1213.38    2.981e-06    1.643e-07     76.95     0.19
   8.30    1204.54    2.746e-06    2.448e-07     76.18     0.30
   8.36    1195.83    4.211e-06    1.151e-06     77.16     0.97
   8.42    1187.24    3.588e-07    6.302e-07     69.04     1.20 *revisit by hand
   8.48    1178.78    1.274e-06    2.672e-07     72.32     0.66
   8.54    1170.43    1.814e-06    1.137e-07     72.97     0.20
   8.60    1162.20    2.391e-06    1.884e-07     73.41     0.25
   8.66    1154.09    3.120e-06    2.050e-07     73.82     0.22
   8.73    1146.09    4.532e-06    1.388e-07     74.62     0.10
   8.79    1138.20    6.887e-06    2.960e-07     75.61     0.15
   8.85    1130.42    9.681e-06    2.424e-07     76.37     0.09
   8.91    1122.74    1.472e-05    1.157e-07     77.45     0.03
   8.97    1115.17    2.401e-05    1.999e-07     78.85     0.03
   9.03    1107.70    3.649e-05    1.462e-07     80.05     0.02
   9.09    1100.33    5.051e-05    1.462e-07     80.92     0.01
   9.15    1093.05    6.199e-05    3.460e-07     81.32     0.02
   9.21    1085.87    6.978e-05    6.172e-07     81.36     0.04
   9.27    1078.79    7.395e-05    8.427e-07     81.16     0.05
   9.33    1071.79    7.353e-05    8.514e-07     80.69     0.05
   9.39    1064.89    7.131e-05    9.020e-07     80.12     0.05
   9.45    1058.08    6.812e-05    1.009e-06     79.50     0.06
   9.51    1051.35    6.405e-05    9.007e-07     78.82     0.06
   9.57    1044.71    6.335e-05    7.329e-07     78.36     0.05
   9.63    1038.15    8.734e-05    7.582e-07     79.27     0.04
   9.69    1031.67    8.139e-05    2.104e-06     78.56     0.11
   9.75    1025.27    5.212e-05    6.425e-07     76.35     0.05
   9.81    1018.95    3.980e-05    1.960e-07     74.90     0.02
   9.87    1012.71    3.557e-05    7.491e-07     74.09     0.08
   9.94    1006.54    3.049e-05    2.978e-07     73.13     0.04
  10.00    1000.45    2.805e-05    6.638e-07     72.45     0.09
  10.06     994.43    2.413e-05    3.937e-07     71.54     0.06
  10.12     988.49    2.161e-05    3.687e-07     70.78     0.06
  10.18     982.62    1.943e-05    2.931e-07     70.06     0.05
  10.24     976.81    1.795e-05    1.741e-07     69.43     0.03
  10.30     971.07    1.714e-05    2.636e-07     68.92     0.05
  10.36     965.40    1.550e-05    1.124e-07     68.24     0.02
  10.42     959.80    1.493e-05    1.832e-07     67.78     0.04
  10.48     954.26    1.577e-05    2.106e-07     67.63     0.04
  10.54     948.78    1.621e-05    2.448e-07     67.39     0.05
  10.60     943.37    1.661e-05    2.709e-07     67.14     0.05
  10.66     938.02    1.823e-05    2.676e-07     67.13     0.05
  10.72     932.72    1.936e-05    2.200e-07     67.00     0.04
  10.78     927.50    2.119e-05    1.960e-07     66.99     0.03
  10.84     922.32    2.248e-05    2.427e-07     66.87     0.04
  10.90     917.20    2.482e-05    1.802e-07     66.89     0.02
  10.96     912.14    2.722e-05    1.953e-07     66.89     0.02
  11.02     907.14    2.900e-05    3.209e-07     66.79     0.04
  11.08     902.18    3.042e-05    2.688e-07     66.65     0.03
  11.14     897.29    3.149e-05    1.584e-07     66.46     0.02
  11.21     892.45    3.161e-05    4.151e-07     66.17     0.04
  11.27     887.66    3.182e-05    3.725e-07     65.89     0.04
  11.33     882.92    3.284e-05    1.089e-07     65.70     0.01
  11.39     878.22    3.323e-05    4.268e-07     65.45     0.04
  11.45     873.58    3.373e-05    4.736e-07     65.20     0.05
  11.51     868.99    3.537e-05    5.014e-07     65.07     0.05
  11.57     864.45    3.859e-05    3.387e-07     65.08     0.03
  11.63     859.96    4.154e-05    5.299e-07     65.05     0.04
  11.69     855.51    4.555e-05    6.866e-07     65.08     0.05
  11.75     851.10    5.140e-05    9.029e-07     65.21     0.06
  11.81     846.74    5.777e-05    1.162e-06     65.34     0.07
  11.87     842.42    6.388e-05    1.169e-06     65.41     0.06
  11.93     838.16    6.973e-05    1.727e-06     65.45     0.09
  11.99     833.93    7.787e-05    1.753e-06     65.56     0.08
  12.05     829.74    8.622e-05    1.833e-06     65.65     0.08
  12.11     825.60    9.556e-05    2.369e-06     65.75     0.09
  12.17     821.50    1.008e-04    2.391e-06     65.67     0.09
  12.23     817.43    1.207e-04    2.753e-06     66.06     0.08
  12.29     813.42    1.227e-04    3.337e-06     65.86     0.10
  12.35     809.43    9.216e-05    2.284e-06     64.55     0.09
  12.41     805.49    7.639e-05    2.472e-06     63.62     0.11
  12.48     801.58    6.826e-05    1.777e-06     62.98     0.09
  12.54     797.72    6.209e-05    1.537e-06     62.40     0.08
  12.60     793.88    5.844e-05    1.373e-06     61.94     0.08
  12.66     790.09    5.743e-05    1.325e-06     61.64     0.08
  12.72     786.34    6.422e-05    1.933e-06     61.77     0.10
  12.78     782.61    8.007e-05    2.057e-06     62.27     0.09
  12.84     778.92    1.069e-04    2.751e-06     63.04     0.09
  12.90     775.27    1.599e-04    4.327e-06     64.25     0.10
  12.96     771.65    2.427e-04    6.576e-06     65.58     0.10
  13.02     768.07    3.315e-04    8.179e-06     66.55     0.10
  13.08     764.52    4.160e-04    9.886e-06     67.22     0.10
  13.14     761.00    5.486e-04    1.148e-05     68.12     0.09
  13.20     757.51    6.766e-04    1.327e-05     68.76     0.09
  13.26     754.06    7.402e-04    1.735e-05     68.90     0.10
  13.32     750.63    8.722e-04    1.659e-05     69.37     0.08
  13.38     747.24    9.941e-04    1.962e-05     69.70     0.09
  13.44     743.88    1.049e-03    2.201e-05     69.69     0.10
  13.50     740.55    1.122e-03    2.167e-05     69.75     0.09
  13.56     737.25    1.275e-03    2.357e-05     70.08     0.09
  13.62     733.97    2.198e-03    4.993e-05     72.44     0.11
  13.69     730.73    4.983e-03    1.618e-04     76.49     0.18
  13.75     727.51    4.435e-03    1.917e-04     75.58     0.24
  13.81     724.33    1.449e-03    4.237e-05     69.69     0.14
  13.87     721.17    9.206e-04    1.871e-05     67.40     0.09
  13.93     718.03    9.864e-04    1.940e-05     67.47     0.09
  13.99     714.93    1.030e-03    1.948e-05     67.42     0.08
  14.05     711.85    1.001e-03    2.121e-05     67.06     0.09
 
 Short-Low2 spectrum

    wl      wn         rad        sigma(rad)     Tb      sigma(Tb)    
   5.13    1950.64    8.565e-07    3.184e-07    110.67     1.69
   5.16    1939.20    4.786e-06    1.354e-06    118.12     1.45
   5.19    1927.90    2.603e-06    3.501e-07    114.56     0.64
   5.22    1916.72    3.319e-06    1.818e-07    115.13     0.26
   5.25    1905.67    3.559e-06    1.442e-07    114.89     0.20
   5.28    1894.75    3.798e-06    3.219e-07    114.62     0.41
   5.31    1883.96    2.217e-06    1.333e-06    111.53     3.13
   5.34    1873.29    3.323e-06    2.879e-07    112.85     0.41
   5.37    1862.73    3.422e-06    2.400e-07    112.44     0.33
   5.40    1852.30    3.327e-06    3.440e-07    111.75     0.49
   5.43    1841.98    3.803e-06    8.069e-08    111.84     0.10
   5.46    1831.78    2.958e-06    3.332e-07    110.13     0.52
   5.49    1821.69    2.486e-06    2.995e-07    108.81     0.55
   5.52    1811.70    2.781e-06    2.668e-07    108.79     0.44
   5.55    1801.83    3.158e-06    2.639e-07    108.85     0.38
   5.58    1792.07    2.844e-06    3.831e-07    107.86     0.61
   5.61    1782.41    2.559e-06    2.970e-07    106.88     0.52
   5.64    1772.85    2.208e-06    3.504e-07    105.73     0.70
   5.67    1763.39    1.896e-06    1.754e-07    104.57     0.40
   5.70    1754.04    2.114e-06    1.529e-07    104.55     0.31
   5.73    1744.79    2.303e-06    1.326e-07    104.44     0.25
   5.76    1735.63    2.689e-06    3.251e-07    104.64     0.53
   5.79    1726.57    2.674e-06    1.485e-07    104.14     0.24
   5.82    1717.60    3.237e-06    2.885e-07    104.50     0.39
   5.85    1708.72    3.047e-06    3.121e-07    103.76     0.45
   5.88    1699.94    3.430e-06    2.322e-07    103.82     0.30
   5.91    1691.24    3.651e-06    1.219e-07    103.63     0.15
   5.94    1682.64    3.508e-06    2.329e-07    102.99     0.29
   5.97    1674.12    2.600e-06    2.940e-07    101.25     0.48
   6.00    1665.68    2.077e-06    4.303e-07     99.86     0.87
   6.03    1657.34    3.290e-06    2.733e-07    101.36     0.36
   6.06    1649.07    3.607e-06    2.006e-07    101.32     0.24
   6.09    1640.89    2.854e-06    3.795e-07     99.88     0.56
   6.12    1632.78    2.906e-06    1.955e-07     99.52     0.28
   6.15    1624.76    3.071e-06    2.775e-07     99.33     0.38
   6.18    1616.82    3.118e-06    5.319e-07     98.97     0.72
   6.22    1608.95    2.066e-06    1.879e-07     96.85     0.37
   6.25    1601.16    1.637e-06    2.681e-07     95.51     0.65
   6.28    1593.44    2.145e-06    3.821e-07     96.19     0.73
   6.31    1585.80    2.675e-06    3.496e-07     96.68     0.54
   6.34    1578.23    3.062e-06    2.140e-07     96.83     0.29
   6.37    1570.74    3.631e-06    2.320e-07     97.14     0.27
   6.40    1563.31    3.469e-06    1.041e-06     96.55     1.28
   6.43    1555.95    3.161e-06    1.207e-06     95.77     1.64
   6.46    1548.67    2.916e-06    6.817e-07     95.05     0.96
   6.49    1541.45    3.747e-06    1.038e-06     95.69     1.17
   6.52    1534.30    5.200e-06    3.199e-07     96.67     0.26
   6.55    1527.21    4.440e-06    2.758e-07     95.62     0.26
   6.58    1520.19    5.332e-06    3.151e-07     96.00     0.25
   6.61    1513.23    4.866e-06    4.316e-07     95.24     0.37
   6.64    1506.34    5.412e-06    4.119e-07     95.30     0.32
   6.67    1499.51    4.492e-06    3.642e-07     94.16     0.33
   6.70    1492.74    3.856e-06    2.282e-07     93.17     0.24
   6.73    1486.03    3.599e-06    1.202e-07     92.52     0.13
   6.76    1479.38    2.922e-06    3.152e-07     91.34     0.42
   6.79    1472.79    3.693e-06    3.575e-07     91.91     0.39
   6.82    1466.26    3.436e-06    3.895e-07     91.27     0.45
   6.85    1459.79    4.422e-06    2.611e-07     91.92     0.24
   6.88    1453.37    5.625e-06    6.398e-07     92.55     0.47
   6.91    1447.01    7.276e-06    8.454e-07     93.26     0.49
   6.94    1440.71    4.810e-06    3.474e-07     91.22     0.29
   6.97    1434.46    3.175e-06    2.571e-07     89.24     0.31
   7.00    1428.26    2.296e-06    2.000e-07     87.67     0.33
   7.03    1422.12    2.887e-06    5.631e-07     88.21     0.75
   7.06    1416.03    2.696e-06    4.749e-07     87.62     0.67
   7.09    1409.99    1.647e-06    2.720e-07     85.48     0.60
   7.12    1404.00    2.668e-06    4.072e-07     86.93     0.57
   7.15    1398.07    3.852e-06    5.384e-07     88.00     0.54
   7.18    1392.18    4.091e-06    4.469e-07     87.91     0.42
   7.21    1386.34    3.203e-06    2.591e-07     86.66     0.31
   7.24    1380.56    3.037e-06    4.046e-07     86.15     0.50
   7.27    1374.82    3.367e-06    3.573e-07     86.22     0.40
   7.30    1369.12    4.125e-06    3.547e-07     86.68     0.33
   7.33    1363.48    5.178e-06    5.039e-07     87.24     0.38
   7.36    1357.88    4.598e-06    8.905e-07     86.48     0.75
   7.39    1352.33    7.631e-06    6.990e-07     88.15     0.37
   7.42    1346.82    1.188e-05    9.676e-07     89.63     0.34
   7.46    1341.35    1.321e-05    7.178e-07     89.76     0.23
   7.49    1335.93    1.370e-05    7.448e-07     89.60     0.23
   7.52    1330.56    1.385e-05    8.997e-07     89.34     0.27
 
 Short-Low Bonus spectrum
 
    wl      wn         rad        sigma(rad)     Tb      sigma(Tb)    
   6.88    1453.37    5.625e-06    6.398e-07     92.55     0.47
   6.91    1447.01    7.276e-06    8.454e-07     93.26     0.49
   6.94    1440.71    4.810e-06    3.474e-07     91.22     0.29
   6.97    1434.46    3.175e-06    2.571e-07     89.24     0.31
   7.00    1428.26    2.296e-06    2.000e-07     87.67     0.33
   7.03    1422.12    2.887e-06    5.631e-07     88.21     0.75
   7.06    1416.03    2.696e-06    4.749e-07     87.62     0.67
   7.09    1409.99    1.647e-06    2.720e-07     85.48     0.60
   7.12    1404.00    2.668e-06    4.072e-07     86.93     0.57
   7.15    1398.07    3.852e-06    5.384e-07     88.00     0.54
   7.18    1392.18    4.091e-06    4.469e-07     87.91     0.42
   7.21    1386.34    3.203e-06    2.591e-07     86.66     0.31
   7.24    1380.56    3.037e-06    4.046e-07     86.15     0.50
   7.27    1374.82    3.367e-06    3.573e-07     86.22     0.40
   7.30    1369.12    4.125e-06    3.547e-07     86.68     0.33
   7.33    1363.48    5.178e-06    5.039e-07     87.24     0.38
   7.36    1357.88    4.598e-06    8.905e-07     86.48     0.75
   7.39    1352.33    7.631e-06    6.990e-07     88.15     0.37
   7.42    1346.82    1.188e-05    9.676e-07     89.63     0.34
   7.46    1341.35    1.321e-05    7.178e-07     89.76     0.23
   7.49    1335.93    1.370e-05    7.448e-07     89.60     0.23
   7.52    1330.56    1.385e-05    8.997e-07     89.34     0.27
 
 Long-Low spectrum

    wl      wn         rad        sigma(rad)     Tb      sigma(Tb)    
  13.98     715.07    1.109e-03    4.880e-05     67.76     0.20
  14.07     710.77    1.090e-03    6.432e-05     67.36     0.26
  14.15     706.51    1.082e-03    6.782e-05     67.00     0.28
  14.24     702.31    9.824e-04    7.079e-05     66.26     0.31
  14.32     698.16    8.238e-04    6.884e-05     65.19     0.35
  14.41     694.06    6.614e-04    5.991e-05     63.97     0.37
  14.49     690.00    4.986e-04    4.872e-05     62.53     0.39
  14.58     685.99    3.564e-04    3.674e-05     60.95     0.39
  14.66     682.03    2.466e-04    2.108e-05     59.31     0.31
  14.75     678.11    1.757e-04    9.778e-06     57.85     0.19
  14.83     674.24    1.408e-04    5.259e-06     56.83     0.12
  14.92     670.42    1.363e-04    5.689e-06     56.45     0.14
  15.00     666.63    1.458e-04    4.976e-06     56.41     0.11
  15.09     662.89    1.394e-04    5.683e-06     56.00     0.13
  15.17     659.19    1.483e-04    5.798e-06     55.95     0.13
  15.25     655.53    1.567e-04    6.594e-06     55.88     0.14
  15.34     651.91    1.583e-04    1.087e-05     55.66     0.23
  15.42     648.33    1.772e-04    5.418e-06     55.78     0.10
  15.51     644.79    1.967e-04    6.965e-06     55.88     0.12
  15.59     641.29    2.192e-04    8.474e-06     56.00     0.13
  15.68     637.83    2.512e-04    9.172e-06     56.21     0.13
  15.76     634.40    2.932e-04    9.651e-06     56.50     0.12
  15.85     631.01    3.325e-04    7.939e-06     56.70     0.08
  15.93     627.66    3.443e-04    9.081e-06     56.58     0.09
  16.02     624.34    3.332e-04    6.712e-06     56.22     0.07
  16.10     621.06    3.320e-04    7.235e-06     55.97     0.08
  16.19     617.81    3.478e-04    1.108e-05     55.89     0.11
  16.27     614.59    3.598e-04    3.592e-06     55.77     0.04
  16.36     611.41    3.753e-04    7.524e-06     55.69     0.07
  16.44     608.26    4.015e-04    1.127e-05     55.69     0.10
  16.52     605.14    4.267e-04    1.186e-05     55.68     0.10
  16.61     602.06    4.536e-04    1.167e-05     55.67     0.09
  16.69     599.01    4.772e-04    9.156e-06     55.62     0.07
  16.78     595.98    5.037e-04    1.022e-05     55.59     0.07
  16.86     592.99    5.394e-04    1.561e-05     55.61     0.10
  16.95     590.03    6.723e-04    6.320e-05     56.19     0.35
  17.03     587.09    9.540e-04    2.208e-05     57.30     0.09
  17.12     584.19    8.024e-04    3.232e-05     56.41     0.15
  17.20     581.31    6.425e-04    1.186e-05     55.36     0.07
  17.29     578.47    6.521e-04    1.283e-05     55.20     0.07
  17.37     575.65    6.744e-04    1.190e-05     55.11     0.06
  17.46     572.85    6.984e-04    1.193e-05     55.02     0.06
  17.54     570.09    7.286e-04    1.364e-05     54.96     0.07
  17.63     567.35    7.606e-04    1.348e-05     54.91     0.07
  17.71     564.64    7.926e-04    1.549e-05     54.85     0.07
  17.80     561.95    8.072e-04    2.934e-05     54.71     0.13
  17.88     559.29    8.283e-04    3.974e-05     54.60     0.18
  17.96     556.65    8.916e-04    1.273e-05     54.67     0.05
  18.05     554.04    9.271e-04    1.622e-05     54.61     0.07
  18.13     551.46    9.695e-04    1.870e-05     54.58     0.07
  18.22     548.89    1.017e-03    1.878e-05     54.55     0.07
  18.30     546.35    1.064e-03    1.866e-05     54.52     0.07
  18.39     543.84    1.120e-03    1.308e-05     54.52     0.04
  18.47     541.34    1.174e-03    1.660e-05     54.50     0.05
  18.56     538.87    1.230e-03    2.023e-05     54.48     0.06
  18.64     536.43    1.288e-03    2.506e-05     54.46     0.07
  18.73     534.00    1.338e-03    2.755e-05     54.42     0.08
  18.81     531.60    1.406e-03    2.625e-05     54.41     0.07
  18.90     529.21    1.480e-03    2.532e-05     54.42     0.07
  18.98     526.85    1.542e-03    3.400e-05     54.39     0.09
  19.07     524.51    1.611e-03    3.545e-05     54.37     0.09
  19.15     522.19    1.678e-03    2.592e-05     54.34     0.06
  19.23     519.90    1.741e-03    1.973e-05     54.30     0.04
  19.32     517.62    1.824e-03    2.097e-05     54.30     0.05
  19.40     515.36    1.892e-03    2.971e-05     54.26     0.06
  19.49     513.12    1.940e-03    2.582e-05     54.17     0.05
  19.57     510.90    2.062e-03    3.502e-05     54.23     0.07
  19.66     508.70    2.154e-03    4.534e-05     54.22     0.08
  19.74     506.52    2.224e-03    2.773e-05     54.17     0.05
  19.83     504.35    2.295e-03    2.051e-05     54.12     0.04
  19.91     502.21    2.393e-03    3.841e-05     54.11     0.07
  20.00     500.08    2.499e-03    3.787e-05     54.11     0.06
  20.08     497.97    2.587e-03    3.165e-05     54.07     0.05
  20.17     495.88    2.675e-03    2.670e-05     54.03     0.04
  20.25     493.81    2.778e-03    3.914e-05     54.01     0.06
  20.34     491.75    2.866e-03    3.568e-05     53.97     0.05
  20.42     489.71    2.971e-03    4.149e-05     53.94     0.06
  20.50     487.69    3.069e-03    3.994e-05     53.90     0.05
  20.59     485.68    3.221e-03    4.450e-05     53.93     0.06
  20.76     481.72    3.485e-03    5.927e-05     53.92     0.07
  20.93     477.83    3.649e-03    5.294e-05     53.78     0.06
  21.10     473.99    3.914e-03    7.297e-05     53.75     0.08
  21.27     470.21    4.268e-03    4.483e-05     53.79     0.04
  21.44     466.50    4.873e-03    5.594e-05     54.03     0.05
 
 Short-High Spectrum
 order  wl        wn         rad        sigma(rad)     Tb      sigma(Tb)    
   11  17.75     563.30    7.980e-04    2.423e-05     54.77     0.11
   11  17.77     562.86    7.979e-04    1.875e-05     54.74     0.09
